freq	Eq_Tx
4.00000000000000000E9	4.83149694979217426E-4
4.01503759398496296E9	4.96886897872050337E-4
4.03007518796992503E9	5.11210240301943397E-4
4.04511278195488622E9	5.26148495850709175E-4
4.06015037593985006E9	5.41732120156865005E-4
4.07518796992481214E9	5.57993360987770970E-4
4.09022556390977599E9	5.74966376448301375E-4
4.10526315789473806E9	5.92687361988402550E-4
4.12030075187969924E9	6.11194686929418474E-4
4.13533834586466220E9	6.30529041294539461E-4
4.15037593984962516E9	6.50733593800777310E-4
4.16541353383458635E9	6.71854161947102391E-4
4.18045112781955019E9	6.93939395220227873E-4
4.19548872180451315E9	7.17040972533764620E-4
4.21052631578947434E9	7.41213815121558017E-4
4.22556390977443730E9	7.66516316219808314E-4
4.24060150375940026E9	7.93010589000046018E-4
4.25563909774436233E9	8.20762734354502932E-4
4.27067669172932352E9	8.49843130289385584E-4
4.28571428571428648E9	8.80326744852189513E-4
4.30075187969925032E9	9.12293474706970464E-4
4.31578947368421151E9	9.45828511680980810E-4
4.33082706766917358E9	9.81022739834848601E-4
4.34586466165413743E9	1.01797316586583886E-3
4.36090225563909861E9	1.05678338593543519E-3
4.37593984962406246E9	1.09756409232754448E-3
4.39097744360902453E9	1.14043362369372514E-3
4.40601503759398661E9	1.18551856302577896E-3
4.42105263157894957E9	1.23295438793352252E-3
4.43609022556391164E9	1.28288617827890827E-3
4.45112781954887282E9	1.33546938675809868E-3
4.46616541353383667E9	1.39087067861505798E-3
4.48120300751879874E9	1.44926884733839634E-3
4.49624060150376170E9	1.51085581393389745E-3
4.51127819548872289E9	1.57583771819560936E-3
4.52631578947368673E9	1.64443611132749212E-3
4.54135338345864881E9	1.71688926030566380E-3
4.55639097744361088E9	1.79345357553542750E-3
4.57142857142857473E9	1.87440517466334056E-3
4.58646616541353591E9	1.96004159686852941E-3
4.60150375939849887E9	2.05068368360219866E-3
4.61654135338346094E9	2.14667764359491242E-3
4.63157894736842302E9	2.24839732202869147E-3
4.64661654135338598E9	2.35624669611604043E-3
4.66165413533834894E9	2.47066262196595998E-3
4.67669172932331101E9	2.59211786059281346E-3
4.69172932330827308E9	2.72112441428518093E-3
4.70676691729323515E9	2.85823720834561756E-3
4.72180451127819900E9	3.00405815750285798E-3
4.73684210526316107E9	3.15924066115137148E-3
4.75187969924812315E9	3.32449457706906504E-3
4.76691729323308522E9	3.50059172948815966E-3
4.78195488721804729E9	3.68837201445562357E-3
4.79699248120301025E9	3.88875017342244789E-3
4.81203007518797321E9	4.10272331509831645E-3
4.82706766917293528E9	4.33137927592363514E-3
4.84210526315789913E9	4.57590592124832352E-3
4.85714285714286031E9	4.83760150263784539E-3
4.87218045112782239E9	5.11788620189394106E-3
4.88721804511278446E9	5.41831500961675427E-3
4.90225563909774742E9	5.74059210575727175E-3
4.91729323308270949E9	6.08658693191343669E-3
4.93233082706767245E9	6.45835217049287102E-3
4.94736842105263541E9	6.85814387469939479E-3
4.96240601503759837E9	7.28844402604194119E-3
4.97744360902255956E9	7.75198583324011814E-3
4.99248120300752252E9	8.25178212849611725E-3
5.00751879699248548E9	8.79115726475927772E-3
5.02255639097744844E9	9.37378297138046790E-3
5.03759398496241051E9	1.00037186860790062E-2
5.05263157894737169E9	1.06854569490308360E-2
5.06766917293233465E9	1.14239745206421550E-2
5.08270676691729761E9	1.22247899686465811E-2
5.09774436090225969E9	1.30940285627376074E-2
5.11278195488722176E9	1.40384954158638364E-2
5.12781954887218472E9	1.50657579199273295E-2
5.14285714285714679E9	1.61842386383996395E-2
5.15789473684210797E9	1.74033199367550084E-2
5.17293233082707271E9	1.87334617492343258E-2
5.18796992481203478E9	2.01863339907916117E-2
5.20300751879699597E9	2.17749652161986695E-2
5.21804511278195982E9	2.35139091899233410E-2
5.23308270676692100E9	2.54194310401152412E-2
5.24812030075188574E9	2.75097145991262382E-2
5.26315789473684781E9	2.98050923417648006E-2
5.27819548872181077E9	3.23282989664623033E-2
5.29323308270677195E9	3.51047490502151582E-2
5.30827067669173402E9	3.81628382471327798E-2
5.32330827067669698E9	4.15342660629911631E-2
5.33834586466165906E9	4.52543761558676749E-2
5.35338345864662202E9	4.93625071704878771E-2
5.36842105263158498E9	5.39023430430600037E-2
5.38345864661654794E9	5.89222461886227933E-2
5.39849624060150823E9	6.44755496259514871E-2
5.41353383458647208E9	7.06207744915815994E-2
5.42857142857143327E9	7.74217271363297677E-2
5.44360902255639623E9	8.49474147619809372E-2
5.45864661654136007E9	9.32717002448355537E-2
5.47368421052632215E9	1.02472595756044593E-1
5.48872180451128422E9	1.12631072157080547E-1
5.50375939849624629E9	1.23829239298428617E-1
5.51879699248120925E9	1.36147735488517552E-1
5.53383458646617132E9	1.49662159212462509E-1
5.54887218045113428E9	1.64438392352022378E-1
5.56390977443609636E9	1.80526714439780878E-1
5.57894736842105932E9	1.97954706719088724E-1
5.59398496240602050E9	2.16719107162515234E-1
5.60902255639098435E9	2.36777011316860619E-1
5.62406015037594642E9	2.58037112870934715E-1
5.63909774436090849E9	2.80352011809950463E-1
5.65413533834587057E9	3.03512923390627964E-1
5.66917293233083353E9	3.27248299822522259E-1
5.68421052631579560E9	3.51227809501989086E-1
5.69924812030075856E9	3.75072700588047692E-1
5.71428571428572063E9	3.98372767159914520E-1
5.72932330827068359E9	4.20709016074504838E-1
5.74436090225564566E9	4.41679920768551160E-1
5.75939849624060862E9	4.60928168274103189E-1
5.77443609022556981E9	4.78164382664799170E-1
5.78947368421053188E9	4.93184635067352861E-1
5.80451127819549484E9	5.05879589813638653E-1
5.81954887218045780E9	5.16234616228959631E-1
5.83458646616542165E9	5.24321710439315769E-1
5.84962406015038372E9	5.30285238861008246E-1
5.86466165413534490E9	5.34324107197017373E-1
5.87969924812030786E9	5.36672952950155047E-1
5.89473684210527171E9	5.37584498629130270E-1
5.90977443609023290E9	5.37314507037949340E-1
5.92481203007519497E9	5.36110058498771824E-1
5.93984962406015704E9	5.34201266863494695E-1
5.95488721804512000E9	5.31796132635182950E-1
5.96992481203008207E9	5.29077999891041895E-1
5.98496240601504503E9	5.26205003994709664E-1
6.00000000000000711E9	5.23310920969982352E-1
6.01503759398496918E9	5.20506911309684295E-1
6.03007518796993214E9	5.17883755830460668E-1
6.04511278195489421E9	5.15514285980271403E-1
6.06015037593985717E9	5.13455803175281300E-1
6.07518796992481924E9	5.11752356191187907E-1
6.09022556390978131E9	5.10436801934010376E-1
6.10526315789474427E9	5.09532615105040687E-1
6.12030075187970724E9	5.09055439368891705E-1
6.13533834586466931E9	5.09014389745629892E-1
6.15037593984963138E9	5.09413125845111914E-1
6.16541353383459345E9	5.10250720495155718E-1
6.18045112781955819E9	5.11522350009349847E-1
6.19548872180452026E9	5.13219832052477365E-1
6.21052631578948144E9	5.15332035670189015E-1
6.22556390977444352E9	5.17845186141770863E-1
6.24060150375940559E9	5.20743085264139793E-1
6.25563909774436944E9	5.24007265700034885E-1
6.27067669172933329E9	5.27617096237490557E-1
6.28571428571429447E9	5.31549853249883686E-1
6.30075187969925654E9	5.35780772307089492E-1
6.31578947368421950E9	5.40283092727381309E-1
6.33082706766918157E9	5.45028106814375768E-1
6.34586466165414453E9	5.49985224520965232E-1
6.36090225563910838E9	5.55122063244197150E-1
6.37593984962406957E9	5.60404571305716637E-1
6.39097744360902986E9	5.65797192342181265E-1
6.40601503759399371E9	5.71263076264626690E-1
6.42105263157895667E9	5.76764340608998705E-1
6.43609022556391874E9	5.82262383983268172E-1
6.45112781954888170E9	5.87718250940805564E-1
6.46616541353384378E9	5.93093045031260235E-1
6.48120300751880585E9	5.98348384089813923E-1
6.49624060150376881E9	6.03446889147907140E-1
6.51127819548873088E9	6.08352695833484702E-1
6.52631578947369206E9	6.13031974942945190E-1
6.54135338345865591E9	6.17453447179479120E-1
6.55639097744361798E9	6.21588876017274217E-1
6.57142857142858094E9	6.25413522391125376E-1
6.58646616541354479E9	6.28906545501842462E-1
6.60150375939850598E9	6.32051335484590471E-1
6.61654135338346805E9	6.34835765958786702E-1
6.63157894736843012E9	6.37252357446673390E-1
6.64661654135339397E9	6.39298346136753626E-1
6.66165413533835515E9	6.40975656256984294E-1
6.67669172932331811E9	6.42290778166898768E-1
6.69172932330828019E9	6.43254557931026927E-1
6.70676691729324137E9	6.43881907373083617E-1
6.72180451127820788E9	6.44191446248122279E-1
6.73684210526316996E9	6.44205090078095477E-1
6.75187969924813114E9	6.43947598310390745E-1
6.76691729323309410E9	6.43446097775448145E-1
6.78195488721805440E9	6.42729595994476988E-1
6.79699248120301736E9	6.41828497822248423E-1
6.81203007518798120E9	6.40774137337631355E-1
6.82706766917294328E9	6.39598334965684767E-1
6.84210526315790624E9	6.38332987683515451E-1
6.85714285714286831E9	6.37009697969755884E-1
6.87218045112782949E9	6.35659445028611536E-1
6.88721804511279334E9	6.34312299851708694E-1
6.90225563909775452E9	6.32997183945766295E-1
6.91729323308271660E9	6.31741670094591790E-1
6.93233082706768045E9	6.30571822359998890E-1
6.94736842105264429E9	6.29512071655996852E-1
6.96240601503760548E9	6.28585122638195593E-1
6.97744360902256755E9	6.27811887307037431E-1
6.99248120300752873E9	6.27211440596473135E-1
7.00751879699249258E9	6.26800993271693763E-1
7.02255639097745465E9	6.26595877655219624E-1
7.03759398496241850E9	6.26609542007184750E-1
7.05263157894737880E9	6.26853549773890428E-1
7.06766917293234087E9	6.27337580366050851E-1
7.08270676691730472E9	6.28069428615638081E-1
7.09774436090226857E9	6.29055000575780898E-1
7.11278195488723064E9	6.30298303863095022E-1
7.12781954887219182E9	6.31801431292617011E-1
7.14285714285715478E9	6.33564537120475890E-1
7.15789473684211508E9	6.35585805790701119E-1
7.17293233082708070E9	6.37861413681606759E-1
7.18796992481204278E9	6.40385484966645713E-1
7.20300751879700396E9	6.43150043345749900E-1
7.21804511278196781E9	6.46144962063741879E-1
7.23308270676693077E9	6.49357915307797384E-1
7.24812030075189284E9	6.52774334755387819E-1
7.26315789473685403E9	6.56377375711141831E-1
7.27819548872181610E9	6.60147897901477876E-1
7.29323308270677995E9	6.64064466558055511E-1
7.30827067669174291E9	6.68103379874361103E-1
7.32330827067670498E9	6.72238729216847553E-1
7.33834586466166705E9	6.76442498558210659E-1
7.35338345864662823E9	6.80684709418216105E-1
7.36842105263159208E9	6.84933617089394353E-1
7.38345864661655327E9	6.89155963038496910E-1
7.39849624060151712E9	6.93317287070684607E-1
7.41353383458648274E9	6.97382301100660662E-1
7.42857142857144215E9	7.01315324201311974E-1
7.44360902255640422E9	7.05080776036492551E-1
7.45864661654136718E9	7.08643722913136731E-1
7.47368421052632925E9	7.11970467632178217E-1
7.48872180451129132E9	7.15029171244925621E-1
7.50375939849625251E9	7.17790491930514563E-1
7.51879699248121813E9	7.20228223724485339E-1
7.53383458646617754E9	7.22319915974221161E-1
7.54887218045114139E9	7.24047453384471673E-1
7.56390977443610346E9	7.25397576512665321E-1
7.57894736842106642E9	7.26362323684146816E-1
7.59398496240603027E9	7.26939377542147014E-1
7.60902255639099145E9	7.27132302753532489E-1
7.62406015037595353E9	7.26950665591116785E-1
7.63909774436091737E9	7.26410030951771457E-1
7.65413533834587678E9	7.25531837529184020E-1
7.66917293233084063E9	7.24343156985485415E-1
7.68421052631580359E9	7.22876347701029864E-1
7.69924812030076744E9	7.21168617701652970E-1
7.71428571428572951E9	7.19261514405534985E-1
7.72932330827068892E9	7.17200360717462004E-1
7.74436090225565277E9	7.15033657641951503E-1
7.75939849624061573E9	7.12812472995329927E-1
7.77443609022557958E9	7.10589834059251668E-1
7.78947368421054342E9	7.08420139283745787E-1
7.80451127819550283E9	7.06358600602099518E-1
7.81954887218046490E9	7.04460723757023377E-1
7.83458646616542875E9	7.02781829435581074E-1
7.84962406015038994E9	7.01376613109707847E-1
7.86466165413535556E9	7.00298736366771912E-1
7.87969924812031497E9	6.99600437215236859E-1
7.89473684210527882E9	6.99332141323257162E-1
7.90977443609024000E9	6.99542050290592954E-1
7.92481203007520207E9	7.00275676713029238E-1
7.93984962406016770E9	7.01575288787954054E-1
7.95488721804512711E9	7.03479219341144812E-1
7.96992481203009095E9	7.06020985283386882E-1
7.98496240601505480E9	7.09228153601087818E-1
8.00000000000001421E9	7.13120879241431993E-1
8.01503759398497984E9	7.17710029252067017E-1
8.03007518796993836E9	7.22994797491467800E-1
8.04511278195490220E9	7.28959707326746109E-1
8.06015037593986605E9	7.35570899609756079E-1
8.07518796992482990E9	7.42771615520218287E-1
8.09022556390979020E9	7.50476816908382816E-1
8.10526315789475049E9	7.58566952099998915E-1
8.12030075187971434E9	7.66880987603776543E-1
8.13533834586467819E9	7.75209002970761318E-1
8.15037593984964026E9	7.83284903566753954E-1
8.16541353383460411E9	7.90780153098481975E-1
8.18045112781956618E9	7.97299854028350197E-1
8.19548872180452825E9	8.02382962717674353E-1
8.21052631578949033E9	8.05508813647822386E-1
8.22556390977445417E9	8.06112267711112374E-1
8.24060150375941447E9	8.03609451858260826E-1
8.25563909774437654E9	7.97434964955684578E-1
8.27067669172933861E9	7.87089430643046040E-1
8.28571428571430069E9	7.72193493434615963E-1
8.30075187969926453E9	7.52541315384788589E-1
8.31578947368422838E9	7.28144316572983730E-1
8.33082706766918690E9	6.99255484444384479E-1
8.34586466165415253E9	6.66366886794521385E-1
8.36090225563911460E9	6.30177965157109377E-1
8.37593984962407845E9	5.91538486840892119E-1
8.39097744360904230E9	5.51375637035198274E-1
8.40601503759400259E9	5.10617719164329653E-1
8.42105263157896466E9	4.70126445909655111E-1
8.43609022556392674E9	4.30646387979295397E-1
8.45112781954888881E9	3.92775327542504193E-1
8.46616541353385266E9	3.56954719192169856E-1
8.48120300751881118E9	3.23476331522424232E-1
8.49624060150377503E9	2.92499770263151992E-1
8.51127819548873887E9	2.64075681214657365E-1
8.52631578947370272E9	2.38170421209526095E-1
8.54135338345866657E9	2.14689302580871644E-1
8.55639097744362687E9	1.93496764860194892E-1
8.57142857142858894E9	1.74432806646262506E-1
8.58646616541355101E9	1.57325671621915530E-1
8.60150375939851486E9	1.42001163099425565E-1
8.61654135338347693E9	1.28289132681386153E-1
8.63157894736843723E9	1.16027723364529067E-1
8.64661654135339930E9	1.05065904699133106E-1
8.66165413533836137E9	9.52647590221804386E-2
8.67669172932332700E9	8.64978893887892042E-2
8.69172932330828907E9	7.86512360977823288E-2
8.70676691729325114E9	7.16225163500606055E-2
8.72180451127821144E9	6.53204426148908901E-2
8.73684210526317884E9	5.96638291996824055E-2
8.75187969924813913E9	5.45806616529370547E-2
8.76691729323310298E9	5.00071779467693300E-2
8.78195488721806150E9	4.58869919139716398E-2
8.79699248120302535E9	4.21702764348523029E-2
8.81203007518798742E9	3.88130149696807702E-2
8.82706766917295127E9	3.57763241029645629E-2
8.84210526315791334E9	3.30258459574196683E-2
8.85714285714287541E9	3.05312070150194437E-2
8.87218045112783571E9	2.82655385857076169E-2
8.88721804511279956E9	2.62050535564928389E-2
8.90225563909776341E9	2.43286738968616589E-2
8.91729323308272548E9	2.26177035241285029E-2
8.93233082706768755E9	2.10555414295824939E-2
8.94736842105264962E9	1.96274303552195439E-2
8.96240601503761347E9	1.83202367397598476E-2
8.97744360902257554E9	1.71222580882488873E-2
8.99248120300753762E9	1.60230543411430815E-2
9.00751879699249969E9	1.50133002143924443E-2
9.02255639097745998E9	1.40846558454217829E-2
9.03759398496242383E9	1.32296534086497308E-2
9.05263157894738768E9	1.24415976582629262E-2
9.06766917293234975E9	1.17144786168207471E-2
9.08270676691731182E9	1.10428948581965636E-2
9.09774436090227567E9	1.04219860350474747E-2
9.11278195488723775E9	9.84737347725679868E-3
9.12781954887219982E9	9.31510784140476567E-3
9.14285714285716367E9	8.82162292490623123E-3
9.15789473684212396E9	8.36369487446128090E-3
9.17293233082708603E9	7.93840611909354177E-3
9.18796992481204988E9	7.54311344528571937E-3
9.20300751879701373E9	7.17541970732019685E-3
9.21804511278197403E9	6.83314873143695145E-3
9.23308270676693610E9	6.51432302919084361E-3
9.24812030075189817E9	6.21714398460453843E-3
9.26315789473686202E9	5.93997422239679196E-3
9.27819548872182409E9	5.68132190161273609E-3
9.29323308270678794E9	5.43982671116000294E-3
9.30827067669175179E9	5.21424737172737540E-3
9.32330827067671031E9	5.00345047290936940E-3
9.33834586466167416E9	4.80640049557279259E-3
9.35338345864663623E9	4.62215088801174190E-3
9.36842105263159830E9	4.44983608061482094E-3
9.38345864661656037E9	4.28866433793173485E-3
9.39849624060152244E9	4.13791135945638189E-3
9.41353383458648452E9	3.99691455137715312E-3
9.42857142857144837E9	3.86506790119657540E-3
9.44360902255641221E9	3.74181739567219918E-3
9.45864661654137606E9	3.62665693014237789E-3
9.47368421052633458E9	3.51912466411880587E-3
9.48872180451130021E9	3.41879978417935826E-3
9.50375939849626050E9	3.32529964080088947E-3
9.51879699248122435E9	3.23827723093900310E-3
9.53383458646618642E9	3.15741900299609757E-3
9.54887218045114672E9	3.08244296542254137E-3
9.56390977443611234E9	3.01309708467017323E-3
9.57894736842107264E9	2.94915796267220598E-3
9.59398496240603649E9	2.89042978857554633E-3
9.60902255639099678E9	2.83674356423199203E-3
9.62406015037595886E9	2.78795660811715429E-3
9.63909774436092448E9	2.74395234807278321E-3
9.65413533834588833E9	2.70464041978035707E-3
9.66917293233085040E9	2.66995709545088999E-3
9.68421052631581247E9	2.63986607620519553E-3
9.69924812030077454E9	2.61435969247205069E-3
9.71428571428573662E9	2.59346057002963892E-3
9.72932330827069691E9	2.57722383582314984E-3
9.74436090225566076E9	2.56573995841827207E-3
9.75939849624062283E9	2.55913834424681941E-3
9.77443609022558668E9	2.55759184448366561E-3
9.78947368421054875E9	2.56132237093415638E-3
9.80451127819551083E9	2.57060787609539831E-3
9.81954887218047290E9	2.58579102726928234E-3
9.83458646616543497E9	2.60729000379865461E-3
9.84962406015039704E9	2.63561197941253811E-3
9.86466165413536089E9	2.67137003148196817E-3
9.87969924812032296E9	2.71530446472070963E-3
9.89473684210528504E9	2.76830987626740654E-3
9.90977443609024711E9	2.83146976319449539E-3
9.92481203007521096E9	2.90610114379596274E-3
9.93984962406017303E9	2.99381262402189030E-3
9.95488721804513510E9	3.09658073457701555E-3
9.96992481203009717E9	3.21685141934845475E-3
9.98496240601505924E9	3.35767663487239165E-3
1.00000000000000000E10	3.52290071557307138E-3


