freq	Eq_Tx
4.00000000000000000E9	6.70514997312717576E-4
4.01503759398496296E9	6.95070984686939575E-4
4.03007518796992503E9	7.20853340777211038E-4
4.04511278195488622E9	7.47933979787681746E-4
4.06015037593985006E9	7.76389717297613302E-4
4.07518796992481214E9	8.06302647276375062E-4
4.09022556390977599E9	8.37760551526642949E-4
4.10526315789473806E9	8.70857344635535924E-4
4.12030075187969924E9	9.05693557830920604E-4
4.13533834586466220E9	9.42376865497027794E-4
4.15037593984962516E9	9.81022658501117739E-4
4.16541353383458635E9	1.02175466892346556E-3
4.18045112781955019E9	1.06470565127709005E-3
4.19548872180451315E9	1.11001812585350046E-3
4.21052631578947434E9	1.15784519044719314E-3
4.22556390977443730E9	1.20835140739793623E-3
4.24060150375940026E9	1.26171377366128201E-3
4.25563909774436233E9	1.31812278248004566E-3
4.27067669172932352E9	1.37778358619630126E-3
4.28571428571428648E9	1.44091727082915488E-3
4.30075187969925032E9	1.50776225426179122E-3
4.31578947368421151E9	1.57857582125303320E-3
4.33082706766917358E9	1.65363581002731674E-3
4.34586466165413743E9	1.73324246693552375E-3
4.36090225563909861E9	1.81772048763251282E-3
4.37593984962406246E9	1.90742126542463453E-3
4.39097744360902453E9	2.00272536993298678E-3
4.40601503759398661E9	2.10404528202531482E-3
4.42105263157894957E9	2.21182841416198928E-3
4.43609022556391164E9	2.32656044889096147E-3
4.45112781954887282E9	2.44876903231491294E-3
4.46616541353383667E9	2.57902786396989470E-3
4.48120300751879874E9	2.71796122980413823E-3
4.49624060150376170E9	2.86624903089643635E-3
4.51127819548872289E9	3.02463236731676144E-3
4.52631578947368673E9	3.19391974422238079E-3
4.54135338345864881E9	3.37499397602500961E-3
4.55639097744361088E9	3.56881987441760362E-3
4.57142857142857473E9	3.77645281738303096E-3
4.58646616541353591E9	3.99904830921311039E-3
4.60150375939849887E9	4.23787265627555509E-3
4.61654135338346094E9	4.49431490003074963E-3
4.63157894736842302E9	4.76990016790100579E-3
4.64661654135338598E9	5.06630462437414231E-3
4.66165413533834894E9	5.38537222952829175E-3
4.67669172932331101E9	5.72913354041493772E-3
4.69172932330827308E9	6.09982682288908062E-3
4.70676691729323515E9	6.49992177801958171E-3
4.72180451127819900E9	6.93214622869655450E-3
4.73684210526316107E9	7.39951615905571902E-3
4.75187969924812315E9	7.90536955246130724E-3
4.76691729323308522E9	8.45340453363877486E-3
4.78195488721804729E9	9.04772238771293580E-3
4.79699248120301025E9	9.69287610387373633E-3
4.81203007518797321E9	1.03939251745544126E-2
4.82706766917293528E9	1.11564974724099386E-2
4.84210526315789913E9	1.19868591267964097E-2
4.85714285714286031E9	1.28919934278936776E-2
4.87218045112782239E9	1.38796898982976868E-2
4.88721804511278446E9	1.49586447856153404E-2
4.90225563909774742E9	1.61385743403166826E-2
4.91729323308270949E9	1.74303423430024229E-2
4.93233082706767245E9	1.88461034228730062E-2
4.94736842105263541E9	2.03994637478332308E-2
4.96240601503759837E9	2.21056606425437119E-2
4.97744360902255956E9	2.39817625705853699E-2
4.99248120300752252E9	2.60468906544149270E-2
5.00751879699248548E9	2.83224624389645996E-2
5.02255639097744844E9	3.08324578460785670E-2
5.03759398496241051E9	3.36037061036708318E-2
5.05263157894737169E9	3.66661907158181810E-2
5.06766917293233465E9	4.00533670742742487E-2
5.08270676691729761E9	4.38024838530502247E-2
5.09774436090225969E9	4.79548945734586596E-2
5.11278195488722176E9	5.25563393180706484E-2
5.12781954887218472E9	5.76571681037269101E-2
5.14285714285714679E9	6.33124664773145618E-2
5.15789473684210797E9	6.95820301079774062E-2
5.17293233082707271E9	7.65301183222741876E-2
5.18796992481203478E9	8.42248968442788559E-2
5.20300751879699597E9	9.27374583198651514E-2
5.21804511278195982E9	1.02140287504581728E-1
5.23308270676692100E9	1.12505019958241981E-1
5.24812030075188574E9	1.23899334764325531E-1
5.26315789473684781E9	1.36382832197987836E-1
5.27819548872181077E9	1.50001788614276110E-1
5.29323308270677195E9	1.64782767807305963E-1
5.30827067669173402E9	1.80725215427552977E-1
5.32330827067669698E9	1.97793380471800706E-1
5.33834586466165906E9	2.15908192013425859E-1
5.35338345864662202E9	2.34940043318565950E-1
5.36842105263158498E9	2.54703739189216094E-1
5.38345864661654794E9	2.74957049733662240E-1
5.39849624060150823E9	2.95404265318376336E-1
5.41353383458647208E9	3.15705754637879732E-1
5.42857142857143327E9	3.35493746793844538E-1
5.44360902255639623E9	3.54393465335688163E-1
5.45864661654136007E9	3.72047558666390632E-1
5.47368421052632215E9	3.88140825101758846E-1
5.48872180451128422E9	4.02421849294441714E-1
5.50375939849624629E9	4.14718536292114237E-1
5.51879699248120925E9	4.24945596364335554E-1
5.53383458646617132E9	4.33103506351502610E-1
5.54887218045113428E9	4.39269935443007142E-1
5.56390977443609636E9	4.43585699310998205E-1
5.57894736842105932E9	4.46237792361023189E-1
5.59398496240602050E9	4.47441950213796158E-1
5.60902255639098435E9	4.47426679032121211E-1
5.62406015037594642E9	4.46419982905656365E-1
5.63909774436090849E9	4.44639327648257154E-1
5.65413533834587057E9	4.42284827967258654E-1
5.66917293233083353E9	4.39535284285474326E-1
5.68421052631579560E9	4.36546515265179202E-1
5.69924812030075856E9	4.33451390498169431E-1
5.71428571428572063E9	4.30361015004513980E-1
5.72932330827068359E9	4.27366609456692448E-1
5.74436090225564566E9	4.24541735778758333E-1
5.75939849624060862E9	4.21944617582921833E-1
5.77443609022556981E9	4.19620389198501709E-1
5.78947368421053188E9	4.17603172841113235E-1
5.80451127819549484E9	4.15917931629129356E-1
5.81954887218045780E9	4.14582079366042855E-1
5.83458646616542165E9	4.13606849498573670E-1
5.84962406015038372E9	4.12998438494842723E-1
5.86466165413534490E9	4.12758945652798559E-1
5.87969924812030786E9	4.12887134071362372E-1
5.89473684210527171E9	4.13379037698220841E-1
5.90977443609023290E9	4.14228438070438543E-1
5.92481203007519497E9	4.15427232308640004E-1
5.93984962406015704E9	4.16965711578486964E-1
5.95488721804512000E9	4.18832766882469709E-1
5.96992481203008207E9	4.21016036851659425E-1
5.98496240601504503E9	4.23502010251891381E-1
6.00000000000000711E9	4.26276094227240154E-1
6.01503759398496918E9	4.29322657869121649E-1
6.03007518796993214E9	4.32625059495274744E-1
6.04511278195489421E9	4.36165665012109471E-1
6.06015037593985717E9	4.39925863873946721E-1
6.07518796992481924E9	4.43886088401060341E-1
6.09022556390978131E9	4.48025841531773850E-1
6.10526315789474427E9	4.52323737424732908E-1
6.12030075187970724E9	4.56757558660677532E-1
6.13533834586466931E9	4.61304333090703267E-1
6.15037593984963138E9	4.65940432619542388E-1
6.16541353383459345E9	4.70641695385270964E-1
6.18045112781955819E9	4.75383571898468382E-1
6.19548872180452026E9	4.80141294742247648E-1
6.21052631578948144E9	4.84890070427609832E-1
6.22556390977444352E9	4.89605290975356855E-1
6.24060150375940559E9	4.94262761793489513E-1
6.25563909774436944E9	4.98838941482352105E-1
6.27067669172933329E9	5.03311188377211760E-1
6.28571428571429447E9	5.07658007978711190E-1
6.30075187969925654E9	5.11859294970417089E-1
6.31578947368421950E9	5.15896563317623791E-1
6.33082706766918157E9	5.19753158007386773E-1
6.34586466165414453E9	5.23414442337522345E-1
6.36090225563910838E9	5.26867955285028522E-1
6.37593984962406957E9	5.30103534357992867E-1
6.39097744360902986E9	5.33113400418470107E-1
6.40601503759399371E9	5.35892202202376033E-1
6.42105263157895667E9	5.38437019590552701E-1
6.43609022556391874E9	5.40747326033180453E-1
6.45112781954888170E9	5.42824911827092826E-1
6.46616541353384378E9	5.44673771127401007E-1
6.48120300751880585E9	5.46299956587045443E-1
6.49624060150376881E9	5.47711406318121341E-1
6.51127819548873088E9	5.48917748432201336E-1
6.52631578947369206E9	5.49930088733127498E-1
6.54135338345865591E9	5.50760787211356106E-1
6.55639097744361798E9	5.51423228842821089E-1
6.57142857142858094E9	5.51931593857712244E-1
6.58646616541354479E9	5.52300632153129456E-1
6.60150375939850598E9	5.52545445919116851E-1
6.61654135338346805E9	5.52681283872463602E-1
6.63157894736843012E9	5.52723349786345164E-1
6.64661654135339397E9	5.52686627302068523E-1
6.66165413533835515E9	5.52585722341329610E-1
6.67669172932331811E9	5.52434723826926444E-1
6.69172932330828019E9	5.52247082882684204E-1
6.70676691729324137E9	5.52035510229888793E-1
6.72180451127820788E9	5.51811891131511079E-1
6.73684210526316996E9	5.51587216956486071E-1
6.75187969924813114E9	5.51371532239686069E-1
6.76691729323309410E9	5.51173895991574625E-1
6.78195488721805440E9	5.51002355955797807E-1
6.79699248120301736E9	5.50863934512719755E-1
6.81203007518798120E9	5.50764624971816996E-1
6.82706766917294328E9	5.50709397075186313E-1
6.84210526315790624E9	5.50702210638869616E-1
6.85714285714286831E9	5.50746036378783366E-1
6.87218045112782949E9	5.50842883096358271E-1
6.88721804511279334E9	5.50993830528057948E-1
6.90225563909775452E9	5.51199067287526923E-1
6.91729323308271660E9	5.51457933443699222E-1
6.93233082706768045E9	5.51768967379488640E-1
6.94736842105264429E9	5.52129956660164734E-1
6.96240601503760548E9	5.52537992706220571E-1
6.97744360902256755E9	5.52989529110791445E-1
6.99248120300752873E9	5.53480443465849259E-1
7.00751879699249258E9	5.54006102564100633E-1
7.02255639097745465E9	5.54561430825523161E-1
7.03759398496241850E9	5.55140981759735652E-1
7.05263157894737880E9	5.55739012219838990E-1
7.06766917293234087E9	5.56349559132342186E-1
7.08270676691730472E9	5.56966518304413505E-1
7.09774436090226857E9	5.57583724817489390E-1
7.11278195488723064E9	5.58195034419415848E-1
7.12781954887219182E9	5.58794405230220281E-1
7.14285714285715478E9	5.59375978984169286E-1
7.15789473684211508E9	5.59934160947736270E-1
7.17293233082708070E9	5.60463697584247722E-1
7.18796992481204278E9	5.60959750985847361E-1
7.20300751879700396E9	5.61417969065792200E-1
7.21804511278196781E9	5.61834550502210650E-1
7.23308270676693077E9	5.62206303450327205E-1
7.24812030075189284E9	5.62530697095138166E-1
7.26315789473685403E9	5.62805905199915113E-1
7.27819548872181610E9	5.63030840916658271E-1
7.29323308270677995E9	5.63205182259603809E-1
7.30827067669174291E9	5.63329387798116166E-1
7.32330827067670498E9	5.63404702295890480E-1
7.33834586466166705E9	5.63433152203376153E-1
7.35338345864662823E9	5.63417531093383683E-1
7.36842105263159208E9	5.63361375309650558E-1
7.38345864661655327E9	5.63268930267974710E-1
7.39849624060151712E9	5.63145108004198391E-1
7.41353383458648274E9	5.62995436696858143E-1
7.42857142857144215E9	5.62826003001628195E-1
7.44360902255640422E9	5.62643388116188703E-1
7.45864661654136718E9	5.62454598546634355E-1
7.47368421052632925E9	5.62266992569906598E-1
7.48872180451129132E9	5.62088203381527762E-1
7.50375939849625251E9	5.61926059887293494E-1
7.51879699248121813E9	5.61788506043661240E-1
7.53383458646617754E9	5.61683519579485235E-1
7.54887218045114139E9	5.61619030845455303E-1
7.56390977443610346E9	5.61602842442265970E-1
7.57894736842106642E9	5.61642550179570232E-1
7.59398496240603027E9	5.61745465819844547E-1
7.60902255639099145E9	5.61918541969520469E-1
7.62406015037595353E9	5.62168299398614835E-1
7.63909774436091737E9	5.62500757003312479E-1
7.65413533834587678E9	5.62921364577433891E-1
7.66917293233084063E9	5.63434938530774421E-1
7.68421052631580359E9	5.64045600687432724E-1
7.69924812030076744E9	5.64756720316861660E-1
7.71428571428572951E9	5.65570859594965292E-1
7.72932330827068892E9	5.66489722762574743E-1
7.74436090225565277E9	5.67514109342655804E-1
7.75939849624061573E9	5.68643871894352237E-1
7.77443609022557958E9	5.69877878918331504E-1
7.78947368421054342E9	5.71213983680062931E-1
7.80451127819550283E9	5.72648999880577492E-1
7.81954887218046490E9	5.74178685271103895E-1
7.83458646616542875E9	5.75797734470886269E-1
7.84962406015038994E9	5.77499782396800665E-1
7.86466165413535556E9	5.79277419837922203E-1
7.87969924812031497E9	5.81122222795402088E-1
7.89473684210527882E9	5.83024797244223691E-1
7.90977443609024000E9	5.84974840944422603E-1
7.92481203007520207E9	5.86961223820462052E-1
7.93984962406016770E9	5.88972088225762747E-1
7.95488721804512711E9	5.90994970102983430E-1
7.96992481203009095E9	5.93016941631644734E-1
7.98496240601505480E9	5.95024775419597951E-1
8.00000000000001421E9	5.97005129646179178E-1
8.01503759398497984E9	5.98944752812827907E-1
8.03007518796993836E9	6.00830705919534758E-1
8.04511278195490220E9	6.02650598989666086E-1
8.06015037593986605E9	6.04392837947018968E-1
8.07518796992482990E9	6.06046876949546931E-1
8.09022556390979020E9	6.07603470452002714E-1
8.10526315789475049E9	6.09054918553997560E-1
8.12030075187971434E9	6.10395298638404782E-1
8.13533834586467819E9	6.11620675958389803E-1
8.15037593984964026E9	6.12729285719090822E-1
8.16541353383460411E9	6.13721679336233628E-1
8.18045112781956618E9	6.14600827932167970E-1
8.19548872180452825E9	6.15372176723151121E-1
8.21052631578949033E9	6.16043644709367122E-1
8.22556390977445417E9	6.16625564930463366E-1
8.24060150375941447E9	6.17130561405408873E-1
8.25563909774437654E9	6.17573359635195729E-1
8.27067669172933861E9	6.17970528103863259E-1
8.28571428571430069E9	6.18340148463223738E-1
8.30075187969926453E9	6.18701411935764156E-1
8.31578947368422838E9	6.19074138844337174E-1
8.33082706766918690E9	6.19478217030166256E-1
8.34586466165415253E9	6.19932953244406981E-1
8.36090225563911460E9	6.20456329434533593E-1
8.37593984962407845E9	6.21064153301782262E-1
8.39097744360904230E9	6.21769089771972627E-1
8.40601503759400259E9	6.22579557407485140E-1
8.42105263157896466E9	6.23498471757277262E-1
8.43609022556392674E9	6.24521816870823798E-1
8.45112781954888881E9	6.25637027647001176E-1
8.46616541353385266E9	6.26821170665583072E-1
8.48120300751881118E9	6.28038921408960249E-1
8.49624060150377503E9	6.29240353561876820E-1
8.51127819548873887E9	6.30358584074451578E-1
8.52631578947370272E9	6.31307358863965895E-1
8.54135338345866657E9	6.31978721218577277E-1
8.55639097744362687E9	6.32240979904957623E-1
8.57142857142858894E9	6.31937285905156543E-1
8.58646616541355101E9	6.30885230149988008E-1
8.60150375939851486E9	6.28877976618884382E-1
8.61654135338347693E9	6.25687522386062955E-1
8.63157894736843723E9	6.21070693076429681E-1
8.64661654135339930E9	6.14778392484305769E-1
8.66165413533836137E9	6.06568379312776962E-1
8.67669172932332700E9	5.96221405466400256E-1
8.69172932330828907E9	5.83559919882718159E-1
8.70676691729325114E9	5.68467785401339931E-1
8.72180451127821144E9	5.50908722195298939E-1
8.73684210526317884E9	5.30940700249634645E-1
8.75187969924813913E9	5.08723493789495418E-1
8.76691729323310298E9	4.84517246061318030E-1
8.78195488721806150E9	4.58671162648404707E-1
8.79699248120302535E9	4.31603119077482145E-1
8.81203007518798742E9	4.03772615872517182E-1
8.82706766917295127E9	3.75650682899808919E-1
8.84210526315791334E9	3.47690704051739585E-1
8.85714285714287541E9	3.20303644890006112E-1
8.87218045112783571E9	2.93840031185892636E-1
8.88721804511279956E9	2.68579619166955563E-1
8.90225563909776341E9	2.44728399222046544E-1
8.91729323308272548E9	2.22421645910139754E-1
8.93233082706768755E9	2.01731263122214699E-1
8.94736842105264962E9	1.82675625832601529E-1
8.96240601503761347E9	1.65230360523760877E-1
8.97744360902257554E9	1.49338890305187322E-1
8.99248120300753762E9	1.34921979537999692E-1
9.00751879699249969E9	1.21885871141588420E-1
9.02255639097745998E9	1.10128883416103607E-1
9.03759398496242383E9	9.95465175472733321E-2
9.05263157894738768E9	9.00352341828511804E-2
9.06766917293234975E9	8.14951063871631831E-2
9.08270676691731182E9	7.38315657941091708E-2
9.09774436090227567E9	6.69564446680597136E-2
9.11278195488723775E9	6.07884905131673570E-2
9.12781954887219982E9	5.52534996494370301E-2
9.14285714285716367E9	5.02841865131853272E-2
9.15789473684212396E9	4.58198788332455731E-2
9.17293233082708603E9	4.18061063127949950E-2
9.18796992481204988E9	3.81941321590441873E-2
9.20300751879701373E9	3.49404624230966832E-2
9.21804511278197403E9	3.20063571009965386E-2
9.23308270676693610E9	2.93573587097265420E-2
9.24812030075189817E9	2.69628480237343915E-2
9.26315789473686202E9	2.47956323431987880E-2
9.27819548872182409E9	2.28315686521240035E-2
9.29323308270678794E9	2.10492219806711089E-2
9.30827067669175179E9	1.94295579521698714E-2
9.32330827067671031E9	1.79556676718490427E-2
9.33834586466167416E9	1.66125226514225877E-2
9.35338345864663623E9	1.53867572499525807E-2
9.36842105263159830E9	1.42664760654033329E-2
9.38345864661656037E9	1.32410837742247733E-2
9.39849624060152244E9	1.23011350463378055E-2
9.41353383458648452E9	1.14382023307535974E-2
9.42857142857144837E9	1.06447594926134403E-2
9.44360902255641221E9	9.91407947217499697E-3
9.45864661654137606E9	9.24014432139717101E-3
9.47368421052633458E9	8.61756614882955674E-3
9.48872180451130021E9	8.04151766534482348E-3
9.50375939849626050E9	7.50767117031729736E-3
9.51879699248122435E9	7.01214494966437396E-3
9.53383458646618642E9	6.55145617398163971E-3
9.54887218045114672E9	6.12247948754111526E-3
9.56390977443611234E9	5.72241056823279770E-3
9.57894736842107264E9	5.34873401589470099E-3
9.59398496240603649E9	4.99919499334273798E-3
9.60902255639099678E9	4.67177410236582791E-3
9.62406015037595886E9	4.36466502769659570E-3
9.63909774436092448E9	4.07625452728581550E-3
9.65413533834588833E9	3.80510438892201286E-3
9.66917293233085040E9	3.54993501313209148E-3
9.68421052631581247E9	3.30961032202382643E-3
9.69924812030077454E9	3.08312373466446621E-3
9.71428571428573662E9	2.86958499269161837E-3
9.72932330827069691E9	2.66820766550359334E-3
9.74436090225566076E9	2.47829721225899480E-3
9.75939849624062283E9	2.29923952693523326E-3
9.77443609022558668E9	2.13048994100854472E-3
9.78947368421054875E9	1.97156270345206774E-3
9.80451127819551083E9	1.82202099686852881E-3
9.81954887218047290E9	1.68146757882097164E-3
9.83458646616543497E9	1.54953615634281450E-3
9.84962406015039704E9	1.42588360754759802E-3
9.86466165413536089E9	1.31018315670775287E-3
9.87969924812032296E9	1.20211858894266088E-3
9.89473684210528504E9	1.10137955986922886E-3
9.90977443609024711E9	1.00765801743660033E-3
9.92481203007521096E9	9.20645711605095940E-4
9.93984962406017303E9	8.40032726655936202E-4
9.95488721804513510E9	7.65506934541408057E-4
9.96992481203009717E9	6.96754238855091579E-4
9.98496240601505924E9	6.33459459710237027E-4
1.00000000000000000E10	5.75307700867540994E-4


