freq	Eq_Tx
4.00000000000000000E9	6.09865047269174898E-4
4.01503759398496296E9	6.18168456750553830E-4
4.03007518796992503E9	6.26799149979734427E-4
4.04511278195488622E9	6.35768165072248070E-4
4.06015037593985006E9	6.45087121368004546E-4
4.07518796992481214E9	6.54768248720413837E-4
4.09022556390977599E9	6.64824418716060705E-4
4.10526315789473806E9	6.75269177952466926E-4
4.12030075187969924E9	6.86116783511220873E-4
4.13533834586466220E9	6.97382240775510986E-4
4.15037593984962516E9	7.09081343751842308E-4
4.16541353383458635E9	7.21230718069663013E-4
4.18045112781955019E9	7.33847866845310204E-4
4.19548872180451315E9	7.46951219612925144E-4
4.21052631578947434E9	7.60560184540400286E-4
4.22556390977443730E9	7.74695204166665441E-4
4.24060150375940026E9	7.89377814916004450E-4
4.25563909774436233E9	8.04630710665518656E-4
4.27067669172932352E9	8.20477810665405549E-4
4.28571428571428648E9	8.36944332135921698E-4
4.30075187969925032E9	8.54056867892771621E-4
4.31578947368421151E9	8.71843469381420810E-4
4.33082706766917358E9	8.90333735533636172E-4
4.34586466165413743E9	9.09558907894658475E-4
4.36090225563909861E9	9.29551972507880286E-4
4.37593984962406246E9	9.50347769085830052E-4
4.39097744360902453E9	9.71983108042548238E-4
4.40601503759398661E9	9.94496896012744891E-4
4.42105263157894957E9	1.01793027053836127E-3
4.43609022556391164E9	1.04232674466356467E-3
4.45112781954887282E9	1.06773236224577683E-3
4.46616541353383667E9	1.09419586486294640E-3
4.48120300751879874E9	1.12176887127807334E-3
4.49624060150376170E9	1.15050607050874598E-3
4.51127819548872289E9	1.18046542964749679E-3
4.52631578947368673E9	1.21170841768487136E-3
4.54135338345864881E9	1.24430024670413375E-3
4.55639097744361088E9	1.27831013194665943E-3
4.57142857142857473E9	1.31381157238957047E-3
4.58646616541353591E9	1.35088265363439941E-3
4.60150375939849887E9	1.38960637508062801E-3
4.61654135338346094E9	1.43007100355012162E-3
4.63157894736842302E9	1.47237045574082903E-3
4.64661654135338598E9	1.51660471212595160E-3
4.66165413533834894E9	1.56288026517488077E-3
4.67669172932331101E9	1.61131060506307655E-3
4.69172932330827308E9	1.66201674636009122E-3
4.70676691729323515E9	1.71512779954302452E-3
4.72180451127819900E9	1.77078159158074988E-3
4.73684210526316107E9	1.82912534027724938E-3
4.75187969924812315E9	1.89031638755566211E-3
4.76691729323308522E9	1.95452299741526847E-3
4.78195488721804729E9	2.02192522490733584E-3
4.79699248120301025E9	2.09271586316076519E-3
4.81203007518797321E9	2.16710147625611826E-3
4.82706766917293528E9	2.24530352660282118E-3
4.84210526315789913E9	2.32755960643505500E-3
4.85714285714286031E9	2.41412478411828468E-3
4.87218045112782239E9	2.50527307716584158E-3
4.88721804511278446E9	2.60129906522031362E-3
4.90225563909774742E9	2.70251965777979031E-3
4.91729323308270949E9	2.80927603316351870E-3
4.93233082706767245E9	2.92193576714231718E-3
4.94736842105263541E9	3.04089517183740643E-3
4.96240601503759837E9	3.16658186794712115E-3
4.97744360902255956E9	3.29945761613688004E-3
4.99248120300752252E9	3.44002143656429382E-3
5.00751879699248548E9	3.58881304906230891E-3
5.02255639097744844E9	3.74641667052570160E-3
5.03759398496241051E9	3.91346521060696162E-3
5.05263157894737169E9	4.09064491200484959E-3
5.06766917293233465E9	4.27870048751059429E-3
5.08270676691729761E9	4.47844081266622318E-3
5.09774436090225969E9	4.69074524050319042E-3
5.11278195488722176E9	4.91657061350640845E-3
5.12781954887218472E9	5.15695905784356778E-3
5.14285714285714679E9	5.41304665619009562E-3
5.15789473684210797E9	5.68607310838994273E-3
5.17293233082707271E9	5.97739250393632915E-3
5.18796992481203478E9	6.28848534714592233E-3
5.20300751879699597E9	6.62097199522488911E-3
5.21804511278195982E9	6.97662769157959062E-3
5.23308270676692100E9	7.35739940211821342E-3
5.24812030075188574E9	7.76542469142475511E-3
5.26315789473684781E9	8.20305290911516316E-3
5.27819548872181077E9	8.67286899506068920E-3
5.29323308270677195E9	9.17772025621663978E-3
5.30827067669173402E9	9.72074651835963444E-3
5.32330827067669698E9	1.03054141140665401E-2
5.33834586466165906E9	1.09355542348253554E-2
5.35338345864662202E9	1.16154062514284040E-2
5.36842105263158498E9	1.23496666940916944E-2
5.38345864661654794E9	1.31435446834612613E-2
5.39849624060150823E9	1.40028247173439713E-2
5.41353383458647208E9	1.49339378471747475E-2
5.42857142857143327E9	1.59440424244485013E-2
5.44360902255639623E9	1.70411157619911702E-2
5.45864661654136007E9	1.82340582391168926E-2
5.47368421052632215E9	1.95328115839006866E-2
5.48872180451128422E9	2.09484932895539178E-2
5.50375939849624629E9	2.24935493632199801E-2
5.51879699248120925E9	2.41819278600957377E-2
5.53383458646617132E9	2.60292759158117493E-2
5.54887218045113428E9	2.80531632425686395E-2
5.56390977443609636E9	3.02733352793809996E-2
5.57894736842105932E9	3.27119993531368225E-2
5.59398496240602050E9	3.53941472696337200E-2
5.60902255639098435E9	3.83479176462003846E-2
5.62406015037594642E9	4.16050009256790965E-2
5.63909774436090849E9	4.52010892424933886E-2
5.65413533834587057E9	4.91763719605285488E-2
5.66917293233083353E9	5.35760755162871583E-2
5.68421052631579560E9	5.84510428368473889E-2
5.69924812030075856E9	6.38583426057576631E-2
5.71428571428572063E9	6.98618914289313420E-2
5.72932330827068359E9	7.65330617562112181E-2
5.74436090225564566E9	8.39512343235352887E-2
5.75939849624060862E9	9.22042348277349966E-2
5.77443609022556981E9	1.01388569387108984E-1
5.78947368421053188E9	1.11609341029308684E-1
5.80451127819549484E9	1.22979689365502209E-1
5.81954887218045780E9	1.35619548148690772E-1
5.83458646616542165E9	1.49653462906202539E-1
5.84962406015038372E9	1.65207158926546915E-1
5.86466165413534490E9	1.82402509358666975E-1
5.87969924812030786E9	2.01350542092003204E-1
5.89473684210527171E9	2.22142169526288313E-1
5.90977443609023290E9	2.44836463672242344E-1
5.92481203007519497E9	2.69446572313492938E-1
5.93984962406015704E9	2.95923817629656227E-1
5.95488721804512000E9	3.24141149502181669E-1
5.96992481203008207E9	3.53877899801647633E-1
5.98496240601504503E9	3.84808571013712575E-1
6.00000000000000711E9	4.16498953711910769E-1
6.01503759398496918E9	4.48412876408482752E-1
6.03007518796993214E9	4.79932025397348472E-1
6.04511278195489421E9	5.10389374644617444E-1
6.06015037593985717E9	5.39114028117644928E-1
6.07518796992481924E9	5.65482328382546662E-1
6.09022556390978131E9	5.88967870375224400E-1
6.10526315789474427E9	6.09182479750452721E-1
6.12030075187970724E9	6.25901682667370451E-1
6.13533834586466931E9	6.39071358307321180E-1
6.15037593984963138E9	6.48796122416392418E-1
6.16541353383459345E9	6.55313330745305400E-1
6.18045112781955819E9	6.58958528659142218E-1
6.19548872180452026E9	6.60128447587351097E-1
6.21052631578948144E9	6.59246588998101579E-1
6.22556390977444352E9	6.56734679862596948E-1
6.24060150375940559E9	6.52991460433824056E-1
6.25563909774436944E9	6.48378798525786415E-1
6.27067669172933329E9	6.43214183628582781E-1
6.28571428571429447E9	6.37768213862021760E-1
6.30075187969925654E9	6.32265622810857764E-1
6.31578947368421950E9	6.26888553457005315E-1
6.33082706766918157E9	6.21781048142189707E-1
6.34586466165414453E9	6.17054001931076090E-1
6.36090225563910838E9	6.12790074663901141E-1
6.37593984962406957E9	6.09048254966062075E-1
6.39097744360902986E9	6.05867915269804591E-1
6.40601503759399371E9	6.03272296980210232E-1
6.42105263157895667E9	6.01271428920459883E-1
6.43609022556391874E9	5.99864519783088834E-1
6.45112781954888170E9	5.99041884741226838E-1
6.46616541353384378E9	5.98786474033169647E-1
6.48120300751880585E9	5.99075071858257591E-1
6.49624060150376881E9	5.99879230475486747E-1
6.51127819548873088E9	6.01165999017598285E-1
6.52631578947369206E9	6.02898500445136243E-1
6.54135338345865591E9	6.05036403923834243E-1
6.55639097744361798E9	6.07536333996699440E-1
6.57142857142858094E9	6.10352252283486862E-1
6.58646616541354479E9	6.13435841983694186E-1
6.60150375939850598E9	6.16736920029765656E-1
6.61654135338346805E9	6.20203896171565994E-1
6.63157894736843012E9	6.23784292442024935E-1
6.64661654135339397E9	6.27425330294270367E-1
6.66165413533835515E9	6.31074586240960933E-1
6.67669172932331811E9	6.34680710199944631E-1
6.69172932330828019E9	6.38194194197268949E-1
6.70676691729324137E9	6.41568172934006586E-1
6.72180451127820788E9	6.44759232390450343E-1
6.73684210526316996E9	6.47728198546863787E-1
6.75187969924813114E9	6.50440875844266131E-1
6.76691729323309410E9	6.52868704505198760E-1
6.78195488721805440E9	6.54989307455801839E-1
6.79699248120301736E9	6.56786901329687733E-1
6.81203007518798120E9	6.58252551681410747E-1
6.82706766917294328E9	6.59384259691982777E-1
6.84210526315790624E9	6.60186875749574220E-1
6.85714285714286831E9	6.60671843677935833E-1
6.87218045112782949E9	6.60856787379073918E-1
6.88721804511279334E9	6.60764958626694732E-1
6.90225563909775452E9	6.60424570185166981E-1
6.91729323308271660E9	6.59868042001563815E-1
6.93233082706768045E9	6.59131189787710348E-1
6.94736842105264429E9	6.58252384932331847E-1
6.96240601503760548E9	6.57271712584539713E-1
6.97744360902256755E9	6.56230151277632601E-1
6.99248120300752873E9	6.55168793036355268E-1
7.00751879699249258E9	6.54128117971688550E-1
7.02255639097745465E9	6.53147332329268160E-1
7.03759398496241850E9	6.52263774177830591E-1
7.05263157894737880E9	6.51512386682041456E-1
7.06766917293234087E9	6.50925255395276992E-1
7.08270676691730472E9	6.50531203349554232E-1
7.09774436090226857E9	6.50355435961232153E-1
7.11278195488723064E9	6.50419226911304182E-1
7.12781954887219182E9	6.50739636163116497E-1
7.14285714285715478E9	6.51329252093879152E-1
7.15789473684211508E9	6.52195951278876063E-1
7.17293233082708070E9	6.53342671717048695E-1
7.18796992481204278E9	6.54767198163961428E-1
7.20300751879700396E9	6.56461961679431383E-1
7.21804511278196781E9	6.58413859426941617E-1
7.23308270676693077E9	6.60604105077081272E-1
7.24812030075189284E9	6.63008124719607395E-1
7.26315789473685403E9	6.65595517764275524E-1
7.27819548872181610E9	6.68330106610695651E-1
7.29323308270677995E9	6.71170102494454035E-1
7.30827067669174291E9	6.74068417370192030E-1
7.32330827067670498E9	6.76973152383498444E-1
7.33834586466166705E9	6.79828291772701210E-1
7.35338345864662823E9	6.82574626305885346E-1
7.36842105263159208E9	6.85150922093631110E-1
7.38345864661655327E9	6.87495338562824188E-1
7.39849624060151712E9	6.89547083659140192E-1
7.41353383458648274E9	6.91248275610062102E-1
7.42857142857144215E9	6.92545960076753619E-1
7.44360902255640422E9	6.93394211110675407E-1
7.45864661654136718E9	6.93756226358888384E-1
7.47368421052632925E9	6.93606314023124249E-1
7.48872180451129132E9	6.92931663626189387E-1
7.50375939849625251E9	6.91733796545961876E-1
7.51879699248121813E9	6.90029606385261118E-1
7.53383458646617754E9	6.87851923048948777E-1
7.54887218045114139E9	6.85249565927069071E-1
7.56390977443610346E9	6.82286887558778954E-1
7.57894736842106642E9	6.79042845415045537E-1
7.59398496240603027E9	6.75609671549724755E-1
7.60902255639099145E9	6.72091233768678986E-1
7.62406015037595353E9	6.68601194525701548E-1
7.63909774436091737E9	6.65261073085404853E-1
7.65413533834587678E9	6.62198301947260148E-1
7.66917293233084063E9	6.59544340362001247E-1
7.68421052631580359E9	6.57432866577892216E-1
7.69924812030076744E9	6.55998016392994110E-1
7.71428571428572951E9	6.55372567614331736E-1
7.72932330827068892E9	6.55685885145240643E-1
7.74436090225565277E9	6.57061334163002186E-1
7.75939849624061573E9	6.59612731081747139E-1
7.77443609022557958E9	6.63439223578116355E-1
7.78947368421054342E9	6.68617762051800391E-1
7.80451127819550283E9	6.75192041783690833E-1
7.81954887218046490E9	6.83156472763433165E-1
7.83458646616542875E9	6.92433431451654258E-1
7.84962406015038994E9	7.02841913373504124E-1
7.86466165413535556E9	7.14056047009290218E-1
7.87969924812031497E9	7.25553315526342057E-1
7.89473684210527882E9	7.36555662288532176E-1
7.90977443609024000E9	7.45973060860508674E-1
7.92481203007520207E9	7.52369379891577150E-1
7.93984962406016770E9	7.53983305795878778E-1
7.95488721804512711E9	7.48846925822505582E-1
7.96992481203009095E9	7.35038718261131052E-1
7.98496240601505480E9	7.11069955204951665E-1
8.00000000000001421E9	6.76329155137488947E-1
8.01503759398497984E9	6.31427809521315275E-1
8.03007518796993836E9	5.78268835350285482E-1
8.04511278195490220E9	5.19751218761842715E-1
8.06015037593986605E9	4.59197585243429707E-1
8.07518796992482990E9	3.99726438079312096E-1
8.09022556390979020E9	3.43789525637218674E-1
8.10526315789475049E9	2.92976556688693712E-1
8.12030075187971434E9	2.48056314089123520E-1
8.13533834586467819E9	2.09153943463834313E-1
8.15037593984964026E9	1.75965638388925427E-1
8.16541353383460411E9	1.47948459277199218E-1
8.18045112781956618E9	1.24460743697964360E-1
8.19548872180452825E9	1.04852801210624125E-1
8.21052631578949033E9	8.85181650377113982E-2
8.22556390977445417E9	7.49176400790905195E-2
8.24060150375941447E9	6.35864831680588871E-2
8.25563909774437654E9	5.41321503489221989E-2
8.27067669172933861E9	4.62274376016455602E-2
8.28571428571430069E9	3.96019033605859505E-2
8.30075187969926453E9	3.40331668473067284E-2
8.31578947368422838E9	2.93388736229094160E-2
8.33082706766918690E9	2.53696521460897007E-2
8.34586466165415253E9	2.20031297982788532E-2
8.36090225563911460E9	1.91389489334494289E-2
8.37593984962407845E9	1.66946684516018973E-2
8.39097744360904230E9	1.46024208197428806E-2
8.40601503759400259E9	1.28061987941612254E-2
8.42105263157896466E9	1.12596592832208953E-2
8.43609022556392674E9	9.92434786809756631E-3
8.45112781954888881E9	8.76826344732148399E-3
8.46616541353385266E9	7.76469691260301076E-3
8.48120300751881118E9	6.89129020712799090E-3
8.49624060150377503E9	6.12927252366283337E-3
8.51127819548873887E9	5.46283893831615597E-3
8.52631578947370272E9	4.87864369589529367E-3
8.54135338345866657E9	4.36538592640355194E-3
8.55639097744362687E9	3.91347002254215415E-3
8.57142857142858894E9	3.51472645711571330E-3
8.58646616541355101E9	3.16218164516602318E-3
8.60150375939851486E9	2.84986770478360185E-3
8.61654135338347693E9	2.57266476123663246E-3
8.63157894736843723E9	2.32616986611957310E-3
8.64661654135339930E9	2.10658774210518951E-3
8.66165413533836137E9	1.91063947437365100E-3
8.67669172932332700E9	1.73548599915318014E-3
8.69172932330828907E9	1.57866382535560046E-3
8.70676691729325114E9	1.43803089648212046E-3
8.72180451127821144E9	1.31172088006307019E-3
8.73684210526317884E9	1.19810447926361174E-3
8.75187969924813913E9	1.09575661047784512E-3
8.76691729323310298E9	1.00342849327612793E-3
8.78195488721806150E9	9.20023864119708357E-4
8.79699248120302535E9	8.44578660097876011E-4
8.81203007518798742E9	7.76243629384124745E-4
8.82706766917295127E9	7.14269415793708085E-4
8.84210526315791334E9	6.57993739473550754E-4
8.85714285714287541E9	6.06830357354436956E-4
8.87218045112783571E9	5.60259537948947806E-4
8.88721804511279956E9	5.17819827326250071E-4
8.90225563909776341E9	4.79100918206526138E-4
8.91729323308272548E9	4.43737463365226947E-4
8.93233082706768755E9	4.11403698955011166E-4
8.94736842105264962E9	3.81808763783404181E-4
8.96240601503761347E9	3.54692617715246072E-4
8.97744360902257554E9	3.29822476763586270E-4
8.99248120300753762E9	3.06989694553460923E-4
9.00751879699249969E9	2.86007030069345758E-4
9.02255639097745998E9	2.66706250242529430E-4
9.03759398496242383E9	2.48936023257463956E-4
9.05263157894738768E9	2.32560064670837496E-4
9.06766917293234975E9	2.17455503720633647E-4
9.08270676691731182E9	2.03511441702970330E-4
9.09774436090227567E9	1.90627678134504031E-4
9.11278195488723775E9	1.78713583700550593E-4
9.12781954887219982E9	1.67687101799377847E-4
9.14285714285716367E9	1.57473862903364248E-4
9.15789473684212396E9	1.48006398028186315E-4
9.17293233082708603E9	1.39223439382595271E-4
9.18796992481204988E9	1.31069297806468943E-4
9.20300751879701373E9	1.23493307929707341E-4
9.21804511278197403E9	1.16449333129710753E-4
9.23308270676693610E9	1.09895323356448005E-4
9.24812030075189817E9	1.03792919753413870E-4
9.26315789473686202E9	9.81071007487004465E-5
9.27819548872182409E9	9.28058649388256818E-5
9.29323308270678794E9	8.78599466523763084E-5
9.30827067669175179E9	8.32425605724610307E-5
9.32330827067671031E9	7.89291722263136819E-5
9.33834586466167416E9	7.48972915255548077E-5
9.35338345864663623E9	7.11262868688784700E-5
9.36842105263159830E9	6.75972176065009656E-5
9.38345864661656037E9	6.42926829179135062E-5
9.39849624060152244E9	6.11966853759618346E-5
9.41353383458648452E9	5.82945076649875382E-5
9.42857142857144837E9	5.55726010921489255E-5
9.44360902255641221E9	5.30184846820560551E-5
9.45864661654137606E9	5.06206537780694443E-5
9.47368421052633458E9	4.83684971912898920E-5
9.48872180451130021E9	4.62522220422648367E-5
9.50375939849626050E9	4.42627855325395636E-5
9.51879699248122435E9	4.23918329647565351E-5
9.53383458646618642E9	4.06316414023880057E-5
9.54887218045114672E9	3.89750684244783985E-5
9.56390977443611234E9	3.74155054879153637E-5
9.57894736842107264E9	3.59468354606484120E-5
9.59398496240603649E9	3.45633939346224750E-5
9.60902255639099678E9	3.32599339676786121E-5
9.62406015037595886E9	3.20315939398726801E-5
9.63909774436092448E9	3.08738682420503574E-5
9.65413533834588833E9	2.97825805435932356E-5
9.66917293233085040E9	2.87538594123642799E-5
9.68421052631581247E9	2.77841160834124246E-5
9.69924812030077454E9	2.68700241942614237E-5
9.71428571428573662E9	2.60085013238754215E-5
9.72932330827069691E9	2.51966921899318352E-5
9.74436090225566076E9	2.44319533750727835E-5
9.75939849624062283E9	2.37118394675570965E-5
9.77443609022558668E9	2.30340905154086073E-5
9.78947368421054875E9	2.23966207059278277E-5
9.80451127819551083E9	2.17975081945044113E-5
9.81954887218047290E9	2.12349860182043892E-5
9.83458646616543497E9	2.07074340407998836E-5
9.84962406015039704E9	2.02133718869484991E-5
9.86466165413536089E9	1.97514528343257201E-5
9.87969924812032296E9	1.93204586438738590E-5
9.89473684210528504E9	1.89192953202316239E-5
9.90977443609024711E9	1.85469898071130035E-5
9.92481203007521096E9	1.82026876362741974E-5
9.93984962406017303E9	1.78856515641345704E-5
9.95488721804513510E9	1.75952612476001402E-5
9.96992481203009717E9	1.73310140307769744E-5
9.98496240601505924E9	1.70925269378055833E-5
1.00000000000000000E10	1.68795399949310476E-5


